# Time (s)            n_hot (m**-3)       n_e (m**-3)         T_e (ev)            E_par (V/m)         v_c (v_th0)         tau               
 0.000000000000e+00  1.703082304625e-24  3.000000000000e+19  7.000000000000e+03  1.000000000000e-02  0.000000000000e+00  0.000000000000e+00 
 5.000000000000e-06  4.771785890456e-06  3.393406794216e+19  6.770840542369e+03  1.985066458832e-02  0.000000000000e+00  0.000000000000e+00 
 1.000000000000e-05  8.407780999878e+00  3.773916179621e+19  6.549193825371e+03  2.960331342631e-02  0.000000000000e+00  0.000000000000e+00 
 1.500000000000e-05  1.256208832863e+04  4.141950983568e+19  6.334813552071e+03  3.925892178698e-02  0.000000000000e+00  0.000000000000e+00 
 2.000000000000e-05  1.093808400301e+06  4.497920171485e+19  6.127461500110e+03  4.881845523920e-02  0.000000000000e+00  0.000000000000e+00 
 2.500000000000e-05  2.284750691033e+07  4.842219301313e+19  5.926907256985e+03  5.828286974429e-02  0.000000000000e+00  0.000000000000e+00 
 3.000000000000e-05  2.102908818387e+08  5.175230963064e+19  5.732927964015e+03  6.765311175159e-02  0.000000000000e+00  0.000000000000e+00 
 3.500000000000e-05  1.156692599180e+09  5.497325203959e+19  5.545308068694e+03  7.693011829311e-02  0.000000000000e+00  0.000000000000e+00 
 4.000000000000e-05  4.505055841646e+09  5.808859939624e+19  5.363839085169e+03  8.611481707723e-02  0.000000000000e+00  0.000000000000e+00 
 4.500000000000e-05  1.375797809188e+10  6.110181351819e+19  5.188319362565e+03  9.520812658148e-02  0.000000000000e+00  0.000000000000e+00 
 5.000000000000e-05  3.515750786288e+10  6.401624273115e+19  5.018553860911e+03  1.042109561444e-01  0.000000000000e+00  0.000000000000e+00 
 5.500000000000e-05  7.851475137543e+10  6.683512558963e+19  4.854353934404e+03  1.131242060564e-01  0.000000000000e+00  0.000000000000e+00 
 6.000000000000e-05  1.579200161702e+11  6.956159447572e+19  4.695537121789e+03  1.219487676500e-01  0.000000000000e+00  0.000000000000e+00 
 6.500000000000e-05  2.923074773491e+11  7.219867907982e+19  4.541926943601e+03  1.306855233886e-01  0.000000000000e+00  0.000000000000e+00 
 7.000000000000e-05  5.058726396221e+11  7.474930976723e+19  4.393352706059e+03  1.393353469552e-01  0.000000000000e+00  0.000000000000e+00 
 7.500000000000e-05  8.283501317304e+11  7.721632083448e+19  4.249649311391e+03  1.478991033392e-01  0.000000000000e+00  0.000000000000e+00 
 8.000000000000e-05  1.295160323164e+12  7.960245365880e+19  4.110657074375e+03  1.563776489235e-01  0.000000000000e+00  0.000000000000e+00 
 8.500000000000e-05  1.947430907951e+12  8.191035974436e+19  3.976221544891e+03  1.647718315696e-01  0.000000000000e+00  0.000000000000e+00 
 9.000000000000e-05  2.831896751012e+12  8.414260366872e+19  3.846193336297e+03  1.730824907028e-01  0.000000000000e+00  0.000000000000e+00 
 9.500000000000e-05  4.000679178114e+12  8.630166593256e+19  3.720427959428e+03  1.813104573961e-01  0.000000000000e+00  0.000000000000e+00 
 1.000000000000e-04  5.510944887598e+12  8.838994571609e+19  3.598785662038e+03  1.894565544528e-01  0.000000000000e+00  0.000000000000e+00 
 1.050000000000e-04  7.424444743967e+12  9.040976354503e+19  3.481131273502e+03  1.975215964895e-01  0.000000000000e+00  0.000000000000e+00 
 1.100000000000e-04  9.806933698636e+12  9.236336386922e+19  3.367334054618e+03  2.055063900171e-01  0.000000000000e+00  0.000000000000e+00 
 1.150000000000e-04  1.272747475329e+13  9.425291755669e+19  3.257267552323e+03  2.134117335217e-01  0.000000000000e+00  0.000000000000e+00 
 1.200000000000e-04  1.625763202874e+13  9.608052430593e+19  3.150809459179e+03  2.212384175441e-01  0.000000000000e+00  0.000000000000e+00 
 1.250000000000e-04  2.047056044418e+13  9.784821497915e+19  3.047841477464e+03  2.289872247593e-01  0.000000000000e+00  0.000000000000e+00 
 1.300000000000e-04  2.544000209165e+13  9.955795385896e+19  2.948249187716e+03  2.366589300545e-01  0.000000000000e+00  0.000000000000e+00 
 1.350000000000e-04  3.123920197354e+13  1.012116408311e+20  2.851921921587e+03  2.442543006065e-01  0.000000000000e+00  0.000000000000e+00 
 1.400000000000e-04  3.793975824158e+13  1.028111134958e+20  2.758752638872e+03  2.517740959588e-01  0.000000000000e+00  0.000000000000e+00 
 1.450000000000e-04  4.561042433257e+13  1.043581492093e+20  2.668637808559e+03  2.592190680972e-01  0.000000000000e+00  0.000000000000e+00 
 1.500000000000e-04  5.431588235317e+13  1.058544670594e+20  2.581477293788e+03  2.665899615251e-01  0.000000000000e+00  0.000000000000e+00 
 1.550000000000e-04  6.411550864881e+13  1.073017297755e+20  2.497174240576e+03  2.738875133380e-01  0.000000000000e+00  0.000000000000e+00 
 1.600000000000e-04  7.506215364051e+13  1.087015455762e+20  2.415634970189e+03  2.811124532970e-01  0.000000000000e+00  0.000000000000e+00 
 1.650000000000e-04  8.720095868067e+13  1.100554699562e+20  2.336768875050e+03  2.882655039024e-01  0.000000000000e+00  0.000000000000e+00 
 1.700000000000e-04  1.005682328324e+14  1.113650074155e+20  2.260488318048e+03  2.953473804650e-01  0.000000000000e+00  0.000000000000e+00 
 1.750000000000e-04  1.151904120997e+14  1.126316131302e+20  2.186708535163e+03  3.023587911785e-01  0.000000000000e+00  0.000000000000e+00 
 1.800000000000e-04  1.310831227228e+14  1.138566945705e+20  2.115347541266e+03  3.093004371897e-01  0.000000000000e+00  0.000000000000e+00 
 1.850000000000e-04  1.482503687216e+14  1.150416130640e+20  2.046326039023e+03  3.161730126690e-01  0.000000000000e+00  0.000000000000e+00 
 1.900000000000e-04  1.666838619431e+14  1.161876853086e+20  1.979567330774e+03  3.229772048798e-01  0.000000000000e+00  0.000000000000e+00 
 1.950000000000e-04  1.863625104887e+14  1.172961848359e+20  1.914997233308e+03  3.297136942468e-01  0.000000000000e+00  0.000000000000e+00 
 2.000000000000e-04  2.072520786240e+14  1.183683434261e+20  1.852543995429e+03  3.363831544247e-01  0.000000000000e+00  0.000000000000e+00 
 2.050000000000e-04  2.293050281617e+14  1.194053524768e+20  1.792138218225e+03  3.429862523650e-01  0.000000000000e+00  0.000000000000e+00 
 2.100000000000e-04  2.524605479465e+14  1.204083643270e+20  1.733712777952e+03  3.495236483831e-01  0.000000000000e+00  0.000000000000e+00 
 2.150000000000e-04  2.766447745285e+14  1.213784935375e+20  1.677202751442e+03  3.559959962239e-01  0.000000000000e+00  0.000000000000e+00 
 2.200000000000e-04  3.017712034810e+14  1.223168181294e+20  1.622545343962e+03  3.624039431277e-01  0.000000000000e+00  0.000000000000e+00 
 2.250000000000e-04  3.277412871917e+14  1.232243807822e+20  1.569679819438e+03  3.687481298944e-01  0.000000000000e+00  0.000000000000e+00 
 2.300000000000e-04  3.544452114119e+14  1.241021899922e+20  1.518547432957e+03  3.750291909481e-01  0.000000000000e+00  0.000000000000e+00 
 2.350000000000e-04  3.817628394778e+14  1.249512211932e+20  1.469091365497e+03  3.812477544001e-01  0.000000000000e+00  0.000000000000e+00 
 2.400000000000e-04  4.095648099980e+14  1.257724178406e+20  1.421256660783e+03  3.874044421119e-01  0.000000000000e+00  0.000000000000e+00 
 2.450000000000e-04  4.377137710064e+14  1.265666924597e+20  1.374990164221e+03  3.934998697574e-01  0.000000000000e+00  0.000000000000e+00 
 2.500000000000e-04  4.660657311581e+14  1.273349276595e+20  1.330240463835e+03  3.995346468845e-01  0.000000000000e+00  0.000000000000e+00 
 2.550000000000e-04  4.944715065735e+14  1.280779771137e+20  1.286957833129e+03  4.055093769759e-01  0.000000000000e+00  0.000000000000e+00 
 2.600000000000e-04  5.227782404166e+14  1.287966665092e+20  1.245094175839e+03  4.114246575095e-01  0.000000000000e+00  0.000000000000e+00 
 2.650000000000e-04  5.508309712843e+14  1.294917944638e+20  1.204602972483e+03  4.172810800184e-01  0.000000000000e+00  0.000000000000e+00 
 2.700000000000e-04  5.784742259741e+14  1.301641334134e+20  1.165439228669e+03  4.230792301498e-01  0.000000000000e+00  0.000000000000e+00 
 2.750000000000e-04  6.055536121908e+14  1.308144304704e+20  1.127559425097e+03  4.288196877233e-01  0.000000000000e+00  0.000000000000e+00 
 2.800000000000e-04  6.319173872441e+14  1.314434082541e+20  1.090921469199e+03  4.345030267897e-01  0.000000000000e+00  0.000000000000e+00 
 2.850000000000e-04  6.574179797334e+14  1.320517656933e+20  1.055484648366e+03  4.401298156875e-01  0.000000000000e+00  0.000000000000e+00 
 2.900000000000e-04  6.819134425948e+14  1.326401788033e+20  1.021209584707e+03  4.457006171003e-01  0.000000000000e+00  0.000000000000e+00 
 2.950000000000e-04  7.052688176374e+14  1.332093014371e+20  9.880581912899e+02  4.512159881128e-01  0.000000000000e+00  0.000000000000e+00 
 3.000000000000e-04  7.273573937781e+14  1.337597660116e+20  9.559936298239e+02  4.566764802669e-01  0.000000000000e+00  0.000000000000e+00 
 3.050000000000e-04  7.483790665660e+14  1.342921842108e+20  9.249802697191e+02  4.620826396162e-01  0.000000000000e+00  0.000000000000e+00 
 3.100000000000e-04  7.685785373057e+14  1.348071476653e+20  8.949836484957e+02  4.674350067813e-01  0.000000000000e+00  0.000000000000e+00 
 3.150000000000e-04  7.879068644369e+14  1.353052286096e+20  8.659704334883e+02  4.727341170032e-01  0.000000000000e+00  0.000000000000e+00 
 3.200000000000e-04  8.063200758490e+14  1.357869805183e+20  8.379083848065e+02  4.779805001974e-01  0.000000000000e+00  0.000000000000e+00 
 3.250000000000e-04  8.237792121152e+14  1.362529387209e+20  8.107663195089e+02  4.831746810066e-01  0.000000000000e+00  0.000000000000e+00 
 3.300000000000e-04  8.402503306779e+14  1.367036209965e+20  7.845140769527e+02  4.883171788532e-01  0.000000000000e+00  0.000000000000e+00 
 3.350000000000e-04  8.557044737226e+14  1.371395281497e+20  7.591224852786e+02  4.934085079913e-01  0.000000000000e+00  0.000000000000e+00 
 3.400000000000e-04  8.701176026347e+14  1.375611445666e+20  7.345633289946e+02  4.984491775581e-01  0.000000000000e+00  0.000000000000e+00 
 3.450000000000e-04  8.834705020293e+14  1.379689387533e+20  7.108093176224e+02  5.034396916246e-01  0.000000000000e+00  0.000000000000e+00 
 3.500000000000e-04  8.957486564046e+14  1.383633638563e+20  6.878340553722e+02  5.083805492465e-01  0.000000000000e+00  0.000000000000e+00 
 3.550000000000e-04  9.069421024826e+14  1.387448581663e+20  6.656120118110e+02  5.132722445136e-01  0.000000000000e+00  0.000000000000e+00 
 3.600000000000e-04  9.170452602750e+14  1.391138456053e+20  6.441184934930e+02  5.181152665996e-01  0.000000000000e+00  0.000000000000e+00 
 3.650000000000e-04  9.260567458605e+14  1.394707361971e+20  6.233296165198e+02  5.229100998107e-01  0.000000000000e+00  0.000000000000e+00 
 3.700000000000e-04  9.339791687708e+14  1.398159265236e+20  6.032222800004e+02  5.276572236342e-01  0.000000000000e+00  0.000000000000e+00 
 3.750000000000e-04  9.408189167768e+14  1.401498001651e+20  5.837741403811e+02  5.323571127864e-01  0.000000000000e+00  0.000000000000e+00 
 3.800000000000e-04  9.465859307342e+14  1.404727281268e+20  5.649635866168e+02  5.370102372602e-01  0.000000000000e+00  0.000000000000e+00 
 3.850000000000e-04  9.512934720048e+14  1.407850692505e+20  5.467697161570e+02  5.416170623719e-01  0.000000000000e+00  0.000000000000e+00 
 3.900000000000e-04  9.549578848101e+14  1.410871706143e+20  5.291723117182e+02  5.461780488078e-01  0.000000000000e+00  0.000000000000e+00 
 3.950000000000e-04  9.575983557055e+14  1.413793679173e+20  5.121518188183e+02  5.506936526705e-01  0.000000000000e+00  0.000000000000e+00 
 4.000000000000e-04  9.592366721920e+14  1.416619858533e+20  4.956893240474e+02  5.551643255240e-01  0.000000000000e+00  0.000000000000e+00 
 4.050000000000e-04  9.598969823046e+14  1.419353384712e+20  4.797665340509e+02  5.595905144393e-01  0.000000000000e+00  0.000000000000e+00 
 4.100000000000e-04  9.596055568363e+14  1.421997295244e+20  4.643657552016e+02  5.639726620391e-01  0.000000000000e+00  0.000000000000e+00 
 4.150000000000e-04  9.583905556854e+14  1.424554528079e+20  4.494698739387e+02  5.683112065417e-01  0.000000000000e+00  0.000000000000e+00 
 4.200000000000e-04  9.562817996355e+14  1.427027924850e+20  4.350623377503e+02  5.726065818052e-01  0.000000000000e+00  0.000000000000e+00 
 4.250000000000e-04  9.533105487144e+14  1.429420234029e+20  4.211271367806e+02  5.768592173708e-01  0.000000000000e+00  0.000000000000e+00 
 4.300000000000e-04  9.495092881111e+14  1.431734113985e+20  4.076487860392e+02  5.810695385054e-01  0.000000000000e+00  0.000000000000e+00 
 4.350000000000e-04  9.449115224824e+14  1.433972135932e+20  3.946123081943e+02  5.852379662448e-01  0.000000000000e+00  0.000000000000e+00 
 4.400000000000e-04  9.395515793278e+14  1.436136786793e+20  3.820032169291e+02  5.893649174352e-01  0.000000000000e+00  0.000000000000e+00 
 4.450000000000e-04  9.334644219800e+14  1.438230471958e+20  3.698075008449e+02  5.934508047752e-01  0.000000000000e+00  0.000000000000e+00 
 4.500000000000e-04  9.266854726260e+14  1.440255517959e+20  3.580116078914e+02  5.974960368568e-01  0.000000000000e+00  0.000000000000e+00 
 4.550000000000e-04  9.192504456608e+14  1.442214175055e+20  3.466024303072e+02  6.015010182067e-01  0.000000000000e+00  0.000000000000e+00 
 4.600000000000e-04  9.111951915619e+14  1.444108619733e+20  3.355672900545e+02  6.054661493263e-01  0.000000000000e+00  0.000000000000e+00 
 4.650000000000e-04  9.025555513801e+14  1.445940957128e+20  3.248939247310e+02  6.093918267321e-01  0.000000000000e+00  0.000000000000e+00 
 4.700000000000e-04  8.933672218488e+14  1.447713223357e+20  3.145704739438e+02  6.132784429951e-01  0.000000000000e+00  0.000000000000e+00 
 4.750000000000e-04  8.836656310374e+14  1.449427387789e+20  3.045854661298e+02  6.171263867800e-01  0.000000000000e+00  0.000000000000e+00 
 4.800000000000e-04  8.734858244041e+14  1.451085355226e+20  2.949278058088e+02  6.209360428846e-01  0.000000000000e+00  0.000000000000e+00 
 4.850000000000e-04  8.628623610406e+14  1.452688968025e+20  2.855867612533e+02  6.247077922776e-01  0.000000000000e+00  0.000000000000e+00 
 4.900000000000e-04  8.518292198505e+14  1.454240008144e+20  2.765519525638e+02  6.284420121371e-01  0.000000000000e+00  0.000000000000e+00 
 4.950000000000e-04  8.404197153558e+14  1.455740199119e+20  2.678133401347e+02  6.321390758882e-01  0.000000000000e+00  0.000000000000e+00 
 5.000000000000e-04  8.286664227897e+14  1.457191207983e+20  2.593612134973e+02  6.357993532403e-01  0.000000000000e+00  0.000000000000e+00 
 5.050000000000e-04  8.166011121034e+14  1.458594647119e+20  2.511861805303e+02  6.394232102242e-01  0.000000000000e+00  0.000000000000e+00 
 5.100000000000e-04  8.042546904881e+14  1.459952076048e+20  2.432791570227e+02  6.430110092287e-01  0.000000000000e+00  0.000000000000e+00 
 5.150000000000e-04  7.916571529969e+14  1.461265003162e+20  2.356313565792e+02  6.465631090365e-01  0.000000000000e+00  0.000000000000e+00 
 5.200000000000e-04  7.788375408373e+14  1.462534887407e+20  2.282342808570e+02  6.500798648608e-01  0.000000000000e+00  0.000000000000e+00 
 5.250000000000e-04  7.658239068959e+14  1.463763139893e+20  2.210797101220e+02  6.535616283800e-01  0.000000000000e+00  0.000000000000e+00 
 5.300000000000e-04  7.526432880530e+14  1.464951125474e+20  2.141596941151e+02  6.570087477732e-01  0.000000000000e+00  0.000000000000e+00 
 5.350000000000e-04  7.393216838446e+14  1.466100164254e+20  2.074665432176e+02  6.604215677555e-01  0.000000000000e+00  0.000000000000e+00 
 5.400000000000e-04  7.258840410328e+14  1.467211533063e+20  2.009928199066e+02  6.638004296115e-01  0.000000000000e+00  0.000000000000e+00 
 5.450000000000e-04  7.123542436500e+14  1.468286466869e+20  1.947313304901e+02  6.671456712303e-01  0.000000000000e+00  0.000000000000e+00 
 5.500000000000e-04  6.987551080921e+14  1.469326160152e+20  1.886751171135e+02  6.704576271389e-01  0.000000000000e+00  0.000000000000e+00 
 5.550000000000e-04  6.851083828466e+14  1.470331768236e+20  1.828174500277e+02  6.737366285356e-01  0.000000000000e+00  0.000000000000e+00 
 5.600000000000e-04  6.714347524530e+14  1.471304408565e+20  1.771518201110e+02  6.769830033232e-01  0.000000000000e+00  0.000000000000e+00 
 5.650000000000e-04  6.577538453080e+14  1.472245161951e+20  1.716719316362e+02  6.801970761420e-01  0.000000000000e+00  0.000000000000e+00 
 5.700000000000e-04  6.440842449427e+14  1.473155073773e+20  1.663716952746e+02  6.833791684019e-01  0.000000000000e+00  0.000000000000e+00 
 5.750000000000e-04  6.304435044149e+14  1.474035155137e+20  1.612452213293e+02  6.865295983147e-01  0.000000000000e+00  0.000000000000e+00 
 5.800000000000e-04  6.168481634777e+14  1.474886384002e+20  1.562868131906e+02  6.896486809262e-01  0.000000000000e+00  0.000000000000e+00 
 5.850000000000e-04  6.033137682006e+14  1.475709706265e+20  1.514909610062e+02  6.927367281472e-01  0.000000000000e+00  0.000000000000e+00 
 5.900000000000e-04  5.898548927406e+14  1.476506036814e+20  1.468523355578e+02  6.957940487849e-01  0.000000000000e+00  0.000000000000e+00 
 5.950000000000e-04  5.764851629741e+14  1.477276260542e+20  1.423657823401e+02  6.988209485740e-01  0.000000000000e+00  0.000000000000e+00 
 6.000000000000e-04  5.632172817225e+14  1.478021233334e+20  1.380263158323e+02  7.018177302069e-01  0.000000000000e+00  0.000000000000e+00 
 6.050000000000e-04  5.500630553184e+14  1.478741783011e+20  1.338291139583e+02  7.047846933644e-01  0.000000000000e+00  0.000000000000e+00 
 6.100000000000e-04  5.370334212792e+14  1.479438710261e+20  1.297695127289e+02  7.077221347452e-01  0.000000000000e+00  0.000000000000e+00 
 6.150000000000e-04  5.241384768705e+14  1.480112789518e+20  1.258430010583e+02  7.106303480959e-01  0.000000000000e+00  0.000000000000e+00 
 6.200000000000e-04  5.113875083582e+14  1.480764769828e+20  1.220452157518e+02  7.135096242403e-01  0.000000000000e+00  0.000000000000e+00 
 6.250000000000e-04  4.987890207646e+14  1.481395375681e+20  1.183719366571e+02  7.163602511084e-01  0.000000000000e+00  0.000000000000e+00 
 6.300000000000e-04  4.863507679593e+14  1.482005307815e+20  1.148190819751e+02  7.191825137652e-01  0.000000000000e+00  0.000000000000e+00 
 6.350000000000e-04  4.740797829296e+14  1.482595243996e+20  1.113827037241e+02  7.219766944394e-01  0.000000000000e+00  0.000000000000e+00 
 6.400000000000e-04  4.619824080903e+14  1.483165839768e+20  1.080589833523e+02  7.247430725513e-01  0.000000000000e+00  0.000000000000e+00 
 6.450000000000e-04  4.500643255051e+14  1.483717729185e+20  1.048442274953e+02  7.274819247411e-01  0.000000000000e+00  0.000000000000e+00 
 6.500000000000e-04  4.383305869064e+14  1.484251525516e+20  1.017348638712e+02  7.301935248963e-01  0.000000000000e+00  0.000000000000e+00 
 6.550000000000e-04  4.267856434091e+14  1.484767821921e+20  9.872743731177e+01  7.328781441792e-01  0.000000000000e+00  0.000000000000e+00 
 6.600000000000e-04  4.154333748293e+14  1.485267192116e+20  9.581860592245e+01  7.355360510538e-01  0.000000000000e+00  0.000000000000e+00 
 6.650000000000e-04  4.042771185270e+14  1.485750191010e+20  9.300513736911e+01  7.381675113132e-01  0.000000000000e+00  0.000000000000e+00 
 6.700000000000e-04  3.933196977016e+14  1.486217355316e+20  9.028390528613e+01  7.407727881055e-01  0.000000000000e+00  0.000000000000e+00 
 6.750000000000e-04  3.825634490806e+14  1.486669204154e+20  8.765188580231e+01  7.433521419606e-01  0.000000000000e+00  0.000000000000e+00 
 6.800000000000e-04  3.720102499474e+14  1.487106239626e+20  8.510615418079e+01  7.459058308160e-01  0.000000000000e+00  0.000000000000e+00 
 6.850000000000e-04  3.616615444665e+14  1.487528947370e+20  8.264388156894e+01  7.484341100427e-01  0.000000000000e+00  0.000000000000e+00 
 6.900000000000e-04  3.515183692657e+14  1.487937797106e+20  8.026233185499e+01  7.509372324708e-01  0.000000000000e+00  0.000000000000e+00 
 6.950000000000e-04  3.415813782489e+14  1.488333243154e+20  7.795885862755e+01  7.534154484146e-01  0.000000000000e+00  0.000000000000e+00 
